 Time (ps)Ekin (1e12erg)Epot (1e12erg)E (1e12erg)T (K)
   0.00000000       16.8912048      -57.4311409      -40.5399323       9.44000761E+13
   9.99999978E-03   16.7069454      -57.2461891      -40.5392456       9.33702905E+13
   1.99999996E-02   16.1698036      -56.7104683      -40.5406685       9.03683684E+13
   2.99999993E-02   15.3174362      -55.9281731      -40.6107368       8.56047380E+13
   3.99999991E-02   14.2139235      -54.9774132      -40.7634888       7.94375173E+13
   5.00000007E-02   12.9491673      -53.8831177      -40.9339523       7.23691588E+13
   5.99999987E-02   11.6376886      -52.7342453      -41.0965576       6.50396880E+13
   7.00000003E-02   10.4114923      -51.6370506      -41.2255592       5.81868286E+13
   7.99999982E-02   9.40327740      -50.7393646      -41.3360863       5.25522090E+13
   8.99999961E-02   8.72245979      -50.1441803      -41.4217186       4.87473126E+13
  0.100000001       8.43223763      -49.9296913      -41.4974556       4.71253417E+13
  0.109999992       8.53734875      -50.1029625      -41.5656166       4.77127791E+13
  0.119999997       8.98730469      -50.6119041      -41.6245995       5.02274531E+13
  0.129999995       9.69306946      -51.3567314      -41.6636620       5.41717682E+13
  0.140000001       10.5491409      -52.2738762      -41.7247353       5.89561059E+13
  0.150000006       11.4536371      -53.2234726      -41.7698364       6.40110769E+13
  0.159999996       12.3215837      -54.1203270      -41.7987404       6.88617769E+13
  0.169999972       13.0926733      -54.9251823      -41.8325081       7.31711768E+13
  0.179999992       13.7329645      -55.5992317      -41.8662682       7.67495808E+13
  0.189999998       14.2330360      -56.1211891      -41.8881531       7.95443378E+13
  0.200000003       14.6042156      -56.5193825      -41.9151649       8.16187399E+13
  0.209999993       14.8736477      -56.8081551      -41.9345093       8.31245286E+13
  0.219999984       15.0787277      -57.0242119      -41.9454803       8.42706641E+13
  0.230000019       15.2615595      -57.2200928      -41.9585342       8.52924469E+13
  0.239999995       15.4631672      -57.4463844      -41.9832153       8.64191796E+13
  0.249999985       15.7180939      -57.7180901      -41.9999962       8.78438840E+13
  0.259999990       16.0501785      -58.0768852      -42.0267067       8.96998216E+13
  0.269999981       16.4700432      -58.5303383      -42.0602989       9.20463165E+13
  0.280000001       16.9761696      -59.0629501      -42.0867767       9.48749048E+13
  0.289999992       17.5585232      -59.6628723      -42.1043472       9.81295170E+13
  0.300000012       18.2031460      -60.3367577      -42.1336098       1.01732130E+14
  0.310000002       18.8953152      -61.0443649      -42.1490479       1.05600470E+14
  0.319999993       19.6208839      -61.7995720      -42.1786880       1.09655464E+14
  0.329999983       20.3669376      -62.5696297      -42.2026939       1.13824938E+14
  0.339999944       21.1209755      -63.3507271      -42.2297554       1.18039031E+14
  0.349999994       21.8706627      -64.1128235      -42.2421608       1.22228830E+14
  0.359999985       22.6042919      -64.8683777      -42.2640877       1.26328863E+14
  0.370000005       23.3112698      -65.6013412      -42.2900734       1.30279964E+14
  0.379999995       23.9833355      -66.3027802      -42.3194466       1.34035947E+14
  0.389999986       24.6141243      -66.9548569      -42.3407364       1.37561251E+14
  0.400000006       25.1998787      -67.5703354      -42.3704605       1.40834847E+14
  0.409999996       25.7388000      -68.1314392      -42.3926392       1.43846726E+14
  0.419999987       26.2299671      -68.6468277      -42.4168625       1.46591713E+14
  0.430000007       26.6711979      -69.1156540      -42.4444580       1.49057629E+14
  0.439999968       27.0569706      -69.5237885      -42.4668198       1.51213601E+14
  0.449999988       27.3794746      -69.8592834      -42.4798126       1.53015995E+14
  0.460000038       27.6341248      -70.1271057      -42.4929810       1.54439155E+14
  0.469999999       27.8265591      -70.3340912      -42.5075302       1.55514625E+14
  0.479999989       27.9711933      -70.4897919      -42.5186005       1.56322935E+14
  0.489999980       28.0819702      -70.6234207      -42.5414543       1.56942031E+14
  0.499999970       28.1642094      -70.7144165      -42.5502052       1.57401643E+14
  0.510000050       28.2165737      -70.7778168      -42.5612373       1.57694288E+14
  0.519999981       28.2391682      -70.8076401      -42.5684700       1.57820570E+14
  0.529999971       28.2395573      -70.8147583      -42.5751991       1.57822734E+14
  0.539999962       28.2325821      -70.8123932      -42.5798073       1.57783761E+14
  0.550000012       28.2332973      -70.8273849      -42.5940895       1.57787754E+14
  0.560000002       28.2493706      -70.8529358      -42.6035652       1.57877579E+14
  0.569999993       28.2784138      -70.8892899      -42.6108742       1.58039898E+14
  0.579999983       28.3110142      -70.9278412      -42.6168251       1.58222099E+14
  0.589999974       28.3365726      -70.9610748      -42.6245041       1.58364923E+14
  0.600000024       28.3468304      -70.9747849      -42.6279564       1.58422251E+14
  0.610000014       28.3359776      -70.9689102      -42.6329308       1.58361601E+14
  0.620000005       28.3007126      -70.9416275      -42.6409149       1.58164519E+14
  0.629999995       28.2390900      -70.8789520      -42.6398582       1.57820134E+14
  0.639999986       28.1530724      -70.7985382      -42.6454697       1.57339399E+14
  0.649999976       28.0551949      -70.7093124      -42.6541176       1.56792395E+14
  0.659999967       27.9703617      -70.6242828      -42.6539230       1.56318288E+14
  0.669999957       27.9304104      -70.5827332      -42.6523247       1.56095000E+14
  0.679999888       27.9605999      -70.6074905      -42.6468925       1.56263711E+14
  0.690000057       28.0656013      -70.7217865      -42.6561890       1.56850561E+14
  0.699999988       28.2282200      -70.8836899      -42.6554680       1.57759383E+14
  0.710000038       28.4190903      -71.0783615      -42.6592674       1.58826095E+14
  0.719999969       28.6090984      -71.2614975      -42.6523972       1.59887993E+14
  0.729999959       28.7758255      -71.4314651      -42.6556396       1.60819799E+14
  0.740000010       28.9054337      -71.5496368      -42.6441994       1.61544122E+14
  0.749999940       28.9917812      -71.6448288      -42.6530495       1.62026702E+14
  0.759999990       29.0359707      -71.6738129      -42.6378403       1.62273662E+14
  0.769999981       29.0449753      -71.6826553      -42.6376762       1.62323994E+14
  0.779999971       29.0259438      -71.6402893      -42.6143494       1.62217626E+14
  0.790000021       28.9777203      -71.5923538      -42.6146355       1.61948117E+14
  0.800000012       28.8901482      -71.5055695      -42.6154251       1.61458709E+14
  0.810000002       28.7556229      -71.3683090      -42.6126823       1.60706872E+14
  0.819999993       28.5798588      -71.1856918      -42.6058273       1.59724599E+14
  0.829999983       28.3831863      -70.9832840      -42.6000977       1.58625440E+14
  0.839999974       28.1925888      -70.7917252      -42.5991402       1.57560238E+14
  0.849999964       28.0312958      -70.6300888      -42.5987968       1.56658831E+14
  0.860000014       27.9118900      -70.5199127      -42.6080208       1.55991501E+14
  0.870000005       27.8357067      -70.4437485      -42.6080437       1.55565729E+14
  0.879999936       27.7956982      -70.3927536      -42.5970573       1.55342139E+14
  0.890000045       27.7809067      -70.3776932      -42.5967903       1.55259477E+14
  0.899999976       27.7804680      -70.3738251      -42.5933571       1.55257028E+14
  0.909999967       27.7851753      -70.3841095      -42.5989304       1.55283318E+14
  0.920000076       27.7881527      -70.3941422      -42.6059875       1.55299978E+14
  0.930000007       27.7840481      -70.3889999      -42.6049538       1.55277026E+14
  0.939999998       27.7689915      -70.3605804      -42.5915871       1.55192889E+14
  0.949999988       27.7447205      -70.3363571      -42.5916328       1.55057245E+14
  0.959999979       27.7207489      -70.3111877      -42.5904388       1.54923279E+14
  0.969999969       27.7087650      -70.3081055      -42.5993423       1.54856287E+14
  0.979999959       27.7155628      -70.3101654      -42.5946045       1.54894288E+14
  0.989999950       27.7452564      -70.3379669      -42.5927086       1.55060231E+14
  0.999999940       27.7993412      -70.3980865      -42.5987511       1.55362506E+14
   1.00999999       27.8682709      -70.4583054      -42.5900345       1.55747728E+14
   1.02000010       27.9294376      -70.5209045      -42.5914650       1.56089564E+14
   1.02999997       27.9609070      -70.5482407      -42.5873375       1.56265439E+14
   1.03999996       27.9548187      -70.5394669      -42.5846519       1.56231415E+14
   1.04999995       27.9220142      -70.5078583      -42.5858459       1.56048074E+14
   1.05999994       27.8827820      -70.4605026      -42.5777245       1.55828829E+14
   1.06999993       27.8507576      -70.4210129      -42.5702591       1.55649850E+14
   1.07999992       27.8267365      -70.3906174      -42.5638809       1.55515598E+14
   1.09000003       27.8077259      -70.3581238      -42.5503922       1.55409365E+14
   1.10000002       27.7974148      -70.3515549      -42.5541420       1.55351735E+14
   1.11000001       27.8049316      -70.3609009      -42.5559654       1.55393745E+14
   1.12000000       27.8382778      -70.3969803      -42.5587006       1.55580107E+14
   1.13000000       27.9011211      -70.4662933      -42.5651741       1.55931321E+14
   1.13999999       27.9926643      -70.5621414      -42.5694771       1.56442909E+14
   1.14999998       28.1060219      -70.6784668      -42.5724449       1.57076450E+14
   1.15999997       28.2246151      -70.7814713      -42.5568542       1.57739234E+14
   1.16999996       28.3230171      -70.8796387      -42.5566177       1.58289174E+14
   1.17999995       28.3751869      -70.9314499      -42.5562592       1.58580729E+14
   1.18999994       28.3634853      -70.9221725      -42.5586853       1.58515331E+14
   1.20000005       28.2823505      -70.8499374      -42.5675888       1.58061910E+14
   1.21000016       28.1379433      -70.7159500      -42.5780029       1.57254859E+14
   1.22000003       27.9456615      -70.5245590      -42.5788994       1.56180228E+14
   1.23000002       27.7286186      -70.3004990      -42.5718842       1.54967252E+14
   1.24000001       27.5125160      -70.0773010      -42.5647812       1.53759527E+14
   1.25000000       27.3192806      -69.8854599      -42.5661812       1.52679578E+14
   1.25999999       27.1646023      -69.7272186      -42.5626144       1.51815132E+14
   1.26999998       27.0595665      -69.6218185      -42.5622559       1.51228114E+14
   1.27999997       27.0105438      -69.5735931      -42.5630455       1.50954125E+14
   1.28999996       27.0134945      -69.5681305      -42.5546341       1.50970634E+14
   1.29999995       27.0525875      -69.5996552      -42.5470619       1.51189107E+14
   1.30999994       27.1047897      -69.6449661      -42.5401726       1.51480846E+14
   1.31999993       27.1503582      -69.6898956      -42.5395393       1.51735524E+14
   1.32999992       27.1813068      -69.7214584      -42.5401535       1.51908497E+14
   1.33999991       27.1998348      -69.7420731      -42.5422401       1.52012029E+14
   1.34999990       27.2092800      -69.7510452      -42.5417633       1.52064827E+14
   1.35999978       27.2078896      -69.7531586      -42.5452728       1.52057042E+14
   1.37000000       27.1887589      -69.7298431      -42.5410805       1.51950138E+14
   1.38000011       27.1459351      -69.6864319      -42.5404968       1.51710794E+14
   1.39000010       27.0792732      -69.6129532      -42.5336800       1.51338239E+14
   1.39999998       26.9928055      -69.5227203      -42.5299187       1.50855005E+14
   1.41000009       26.8904781      -69.4170380      -42.5265579       1.50283120E+14
   1.42000008       26.7767239      -69.2967606      -42.5200386       1.49647381E+14
   1.42999995       26.6609573      -69.1840286      -42.5230675       1.49000418E+14
   1.43999994       26.5587120      -69.0852051      -42.5264893       1.48428986E+14
   1.45000005       26.4862270      -69.0097046      -42.5234795       1.48023884E+14
   1.45999992       26.4502907      -68.9684601      -42.5181732       1.47823044E+14
   1.46999991       26.4401398      -68.9714737      -42.5313339       1.47766303E+14
   1.48000002       26.4288654      -68.9518356      -42.5229721       1.47703305E+14
   1.48999989       26.3861294      -68.9170609      -42.5309296       1.47464464E+14
   1.49999988       26.2934399      -68.8298340      -42.5363922       1.46946451E+14
   1.50999999       26.1585331      -68.6915741      -42.5330391       1.46192499E+14
   1.51999998       26.0182590      -68.5488663      -42.5306091       1.45408534E+14
   1.52999997       25.9242706      -68.4539490      -42.5296822       1.44883273E+14
   1.53999996       25.9135590      -68.4463120      -42.5327530       1.44823412E+14
   1.54999995       25.9869785      -68.5239182      -42.5369377       1.45233715E+14
   1.55999994       26.1138248      -68.6544571      -42.5406303       1.45942620E+14
   1.56999993       26.2517757      -68.7920303      -42.5402527       1.46713600E+14
   1.58000004       26.3664570      -68.9034042      -42.5369453       1.47354523E+14
   1.59000003       26.4447460      -68.9714279      -42.5266800       1.47792056E+14
   1.60000002       26.4985523      -69.0283051      -42.5297508       1.48092771E+14
   1.61000001       26.5530529      -69.0748978      -42.5218468       1.48397361E+14
   1.62000000       26.6237450      -69.1476059      -42.5238609       1.48792431E+14
   1.63000000       26.7025013      -69.2284775      -42.5259743       1.49232581E+14
   1.63999999       26.7678509      -69.2931366      -42.5252800       1.49597805E+14
   1.64999998       26.8078327      -69.3316727      -42.5238380       1.49821244E+14
   1.65999997       26.8249435      -69.3489304      -42.5239830       1.49916874E+14
   1.66999984       26.8218136      -69.3464279      -42.5246086       1.49899375E+14
   1.67999995       26.7962418      -69.3311844      -42.5349426       1.49756467E+14
   1.69000006       26.7500458      -69.2801361      -42.5300903       1.49498282E+14
   1.69999993       26.6911316      -69.2181320      -42.5270004       1.49169029E+14
   1.71000004       26.6269665      -69.1569748      -42.5300064       1.48810433E+14
   1.72000003       26.5582180      -69.0947418      -42.5365257       1.48426218E+14
   1.72999990       26.4784222      -69.0135727      -42.5351486       1.47980263E+14
   1.74000001       26.3784466      -68.9200897      -42.5416451       1.47421531E+14
   1.75000000       26.2523193      -68.8004913      -42.5481720       1.46716636E+14
   1.75999987       26.1016483      -68.6391754      -42.5375290       1.45874588E+14
   1.76999986       25.9361172      -68.4662933      -42.5301781       1.44949476E+14
   1.78000009       25.7685928      -68.2990494      -42.5304527       1.44013240E+14
   1.78999996       25.6066418      -68.1376495      -42.5310059       1.43108143E+14
   1.79999995       25.4489632      -67.9831924      -42.5342331       1.42226919E+14
   1.81000006       25.2921410      -67.8244019      -42.5322571       1.41350477E+14
   1.81999993       25.1446648      -67.6743164      -42.5296516       1.40526272E+14
   1.82999992       25.0357208      -67.5595856      -42.5238609       1.39917435E+14
   1.84000015       25.0084038      -67.5319977      -42.5235939       1.39764754E+14
   1.85000002       25.0950737      -67.6147842      -42.5197105       1.40249129E+14
   1.86000001       25.2916775      -67.8138351      -42.5221596       1.41347894E+14
   1.87000000       25.5535984      -68.0822525      -42.5286522       1.42811689E+14
   1.88000000       25.8177357      -68.3597870      -42.5420532       1.44287866E+14
   1.88999999       26.0305729      -68.5771713      -42.5465965       1.45477371E+14
   1.89999998       26.1653538      -68.7163544      -42.5509987       1.46230617E+14
   1.90999997       26.2273674      -68.7674332      -42.5400696       1.46577201E+14
   1.91999996       26.2449684      -68.8018799      -42.5569115       1.46675549E+14
   1.92999995       26.2426243      -68.7996521      -42.5570259       1.46662463E+14
   1.93999994       26.2213688      -68.7861328      -42.5647659       1.46543663E+14
   1.94999993       26.1723900      -68.7389832      -42.5665970       1.46269943E+14
   1.95999992       26.0982666      -68.6580811      -42.5598106       1.45855697E+14
   1.96999991       26.0167522      -68.5738831      -42.5571327       1.45400128E+14
   1.97999990       25.9519138      -68.5088501      -42.5569382       1.45037757E+14
   1.98999977       25.9222126      -68.4764481      -42.5542336       1.44871763E+14
   1.99999988       25.9301910      -68.4839783      -42.5537872       1.44916357E+14
   2.01000023       25.9617062      -68.5184555      -42.5567513       1.45092485E+14
   2.01999998       25.9959602      -68.5414658      -42.5455017       1.45283913E+14
   2.02999997       26.0187931      -68.5606155      -42.5418243       1.45411537E+14
   2.04000020       26.0301247      -68.5699997      -42.5398750       1.45474854E+14
   2.04999995       26.0428848      -68.5814209      -42.5385361       1.45546174E+14
   2.05999994       26.0737343      -68.6058502      -42.5321159       1.45718577E+14
   2.07000017       26.1337719      -68.6647797      -42.5310097       1.46054104E+14
   2.07999992       26.2223682      -68.7577438      -42.5353737       1.46549250E+14
   2.08999991       26.3266907      -68.8673935      -42.5406990       1.47132275E+14
   2.09999990       26.4258194      -68.9755707      -42.5497475       1.47686276E+14
   2.10999990       26.4964352      -69.0468903      -42.5504570       1.48080926E+14
   2.11999989       26.5184269      -69.0706253      -42.5521965       1.48203836E+14
   2.12999988       26.4801884      -69.0349731      -42.5547867       1.47990128E+14
   2.13999987       26.3795185      -68.9293213      -42.5498047       1.47427521E+14
   2.14999986       26.2232838      -68.7741776      -42.5508957       1.46554367E+14
   2.15999985       26.0269604      -68.5699081      -42.5429497       1.45457171E+14
   2.17000008       25.8130703      -68.3662796      -42.5532074       1.44261811E+14
   2.18000007       25.6055603      -68.1582260      -42.5526695       1.43102103E+14
   2.18999982       25.4239788      -67.9633942      -42.5394135       1.42087282E+14
   2.20000005       25.2801914      -67.8205872      -42.5403976       1.41283687E+14
   2.21000004       25.1793442      -67.7117081      -42.5323677       1.40720090E+14
   2.22000003       25.1224899      -67.6555634      -42.5330734       1.40402347E+14
   2.23000002       25.1085930      -67.6365433      -42.5279465       1.40324693E+14
   2.24000001       25.1315899      -67.6569366      -42.5253448       1.40453198E+14
   2.25000000       25.1773033      -67.6907501      -42.5134430       1.40708682E+14
   2.25999999       25.2266026      -67.7386856      -42.5120811       1.40984214E+14
   2.26999998       25.2633457      -67.7718506      -42.5085030       1.41189550E+14
   2.27999997       25.2801113      -67.7793961      -42.4992828       1.41283251E+14
   2.28999972       25.2774448      -67.7886200      -42.5111732       1.41268353E+14
   2.29999995       25.2593231      -67.7856903      -42.5263710       1.41167069E+14
